# energy(eV) alpha
0.000000000000000000e+00 2.918981726782970298e+00
1.739999999999999880e-02 2.918998856152262178e+00
3.470000000000000168e-02 2.919050243657012267e+00
5.210000000000000048e-02 2.919135887487948722e+00
6.950000000000000622e-02 2.919244341525440323e+00
8.680000000000000215e-02 2.919387045799815894e+00
1.042000000000000010e-01 2.919575437181306743e+00
1.214999999999999969e-01 2.919786624854434187e+00
1.388999999999999957e-01 2.920026360786422970e+00
1.562999999999999945e-01 2.920294564190076603e+00
1.736000000000000043e-01 2.920608420904443836e+00
1.910000000000000031e-01 2.920945043193857948e+00
2.084000000000000019e-01 2.921327293454407226e+00
2.257000000000000117e-01 2.921726607072968385e+00
2.431000000000000105e-01 2.922165766775992601e+00
2.605000000000000093e-01 2.922639076603016584e+00
2.777999999999999914e-01 2.923146519968386148e+00
2.952000000000000179e-01 2.923676653018876692e+00
3.125000000000000000e-01 2.924252311183964004e+00
3.299000000000000266e-01 2.924856372720690878e+00
3.472999999999999976e-01 2.925488745395441903e+00
3.645999999999999797e-01 2.926172243717326982e+00
3.820000000000000062e-01 2.926872665584832056e+00
3.993999999999999773e-01 2.927607077863876306e+00
4.167000000000000148e-01 2.928375454985364890e+00
4.340999999999999859e-01 2.929177770224897337e+00
4.515000000000000124e-01 2.930031060590482461e+00
4.687999999999999945e-01 2.930901162229496926e+00
4.862000000000000210e-01 2.931810774264466790e+00
5.034999999999999476e-01 2.932754202117956233e+00
5.209000000000000297e-01 2.933731413172735447e+00
5.383000000000000007e-01 2.934742373687551975e+00
5.555999999999999828e-01 2.935787048802881216e+00
5.729999999999999538e-01 2.936871051956019052e+00
5.904000000000000359e-01 2.937988692215975917e+00
6.077000000000000179e-01 2.939151298286251990e+00
6.250999999999999890e-01 2.940336092082084463e+00
6.424999999999999600e-01 2.941554404493541774e+00
6.598000000000000531e-01 2.942823184614754783e+00
6.772000000000000242e-01 2.944125384106036414e+00
6.945000000000000062e-01 2.945449615499076135e+00
7.118999999999999773e-01 2.946824154529910533e+00
7.292999999999999483e-01 2.948231971396792161e+00
7.466000000000000414e-01 2.949684345687365372e+00
7.640000000000000124e-01 2.951164189757689460e+00
7.813999999999999835e-01 2.952688475498534970e+00
7.986999999999999655e-01 2.954251439372053589e+00
8.161000000000000476e-01 2.955847407920459524e+00
8.335000000000000187e-01 2.957487625634247053e+00
8.508000000000000007e-01 2.959166332959676016e+00
8.681999999999999718e-01 2.960883464089025807e+00
8.854999999999999538e-01 2.962644632026009806e+00
9.029000000000000359e-01 2.964438486801283634e+00
9.203000000000000069e-01 2.966276151785491866e+00
9.375999999999999890e-01 2.968157627593181136e+00
9.549999999999999600e-01 2.970071580489217489e+00
9.724000000000000421e-01 2.972034771490080551e+00
9.897000000000000242e-01 2.974035866923805393e+00
1.007100000000000106e+00 2.976086018557157153e+00
1.024499999999999966e+00 2.978173904209532097e+00
1.041800000000000059e+00 2.980305093221598867e+00
1.059199999999999919e+00 2.982473847965136926e+00
1.076500000000000012e+00 2.984702479894162153e+00
1.093900000000000095e+00 2.986957289986739372e+00
1.111299999999999955e+00 2.989271758446275573e+00
1.128600000000000048e+00 2.991623404502546268e+00
1.145999999999999908e+00 2.994040002892100816e+00
1.163399999999999990e+00 2.996488023827603264e+00
1.180700000000000083e+00 2.998972918353255857e+00
1.198099999999999943e+00 3.001522388309976641e+00
1.215500000000000025e+00 3.004114107217157770e+00
1.232799999999999896e+00 3.006758992599893432e+00
1.250199999999999978e+00 3.009445797110674281e+00
1.267500000000000071e+00 3.012185595463098053e+00
1.284899999999999931e+00 3.014978152627922459e+00
1.302300000000000013e+00 3.017823321573870121e+00
1.319600000000000106e+00 3.020726532528836827e+00
1.336999999999999966e+00 3.023670989101543860e+00
1.354400000000000048e+00 3.026678659124931059e+00
1.371699999999999919e+00 3.029743884881074933e+00
1.389100000000000001e+00 3.032849910915457414e+00
1.406500000000000083e+00 3.036029645080072115e+00
1.423799999999999955e+00 3.039244405289886153e+00
1.441200000000000037e+00 3.042537936390456554e+00
1.458499999999999908e+00 3.045882590621814323e+00
1.475899999999999990e+00 3.049289163633127409e+00
1.493300000000000072e+00 3.052746495830857221e+00
1.510599999999999943e+00 3.056276294370022129e+00
1.528000000000000025e+00 3.059872795340152329e+00
1.545400000000000107e+00 3.063519441739234850e+00
1.562699999999999978e+00 3.067243257425786851e+00
1.580100000000000060e+00 3.071033073226147270e+00
1.597499999999999920e+00 3.074883258484852000e+00
1.614800000000000013e+00 3.078809827238965457e+00
1.632200000000000095e+00 3.082801639840094587e+00
1.649499999999999966e+00 3.086858442377546030e+00
1.666900000000000048e+00 3.091006974339590929e+00
1.684299999999999908e+00 3.095214558562691565e+00
1.701600000000000001e+00 3.099502427963651829e+00
1.719000000000000083e+00 3.103870248986054126e+00
1.736399999999999944e+00 3.108312358331194680e+00
1.753700000000000037e+00 3.112849818340134078e+00
1.771099999999999897e+00 3.117460863719593522e+00
1.788499999999999979e+00 3.122161183592022660e+00
1.805800000000000072e+00 3.126944969721296985e+00
1.823199999999999932e+00 3.131827917724061550e+00
1.840500000000000025e+00 3.136798900538897428e+00
1.857900000000000107e+00 3.141868032742378691e+00
1.875299999999999967e+00 3.147050843599565439e+00
1.892600000000000060e+00 3.152341407861266820e+00
1.909999999999999920e+00 3.157733944654124603e+00
1.927400000000000002e+00 3.163254317997447718e+00
1.944700000000000095e+00 3.168870183936923102e+00
1.962099999999999955e+00 3.174586366621874767e+00
1.979500000000000037e+00 3.180423249070960967e+00
1.996799999999999908e+00 3.186359163165434438e+00
2.014200000000000212e+00 3.192404164837426173e+00
2.031499999999999861e+00 3.198557515939685292e+00
2.048900000000000166e+00 3.204834196023279347e+00
2.066300000000000026e+00 3.211212761651236924e+00
2.083600000000000119e+00 3.217708158828536114e+00
2.100999999999999979e+00 3.224329930028915658e+00
2.118399999999999839e+00 3.231056705223903425e+00
2.135699999999999932e+00 3.237918735386746238e+00
2.153099999999999792e+00 3.244910068670804115e+00
2.170500000000000096e+00 3.252014365141837615e+00
2.187800000000000189e+00 3.259261709638756166e+00
2.205200000000000049e+00 3.266635712783786616e+00
2.222500000000000142e+00 3.274155976860597228e+00
2.239900000000000002e+00 3.281806121609143645e+00
2.257299999999999862e+00 3.289615791533972544e+00
2.274599999999999955e+00 3.297563538195844135e+00
2.291999999999999815e+00 3.305668486009877505e+00
2.309400000000000119e+00 3.313944728734728784e+00
2.326700000000000212e+00 3.322375781921771409e+00
2.344100000000000072e+00 3.330980437162758268e+00
2.361499999999999932e+00 3.339777416646649844e+00
2.378800000000000026e+00 3.348755198613462714e+00
2.396199999999999886e+00 3.357932124627247106e+00
2.413499999999999979e+00 3.367311461044414145e+00
2.430899999999999839e+00 3.376916287556174012e+00
2.448300000000000143e+00 3.386749464603040938e+00
2.465599999999999792e+00 3.396833620765862705e+00
2.483000000000000096e+00 3.407171176585509276e+00
2.500399999999999956e+00 3.417803883357770633e+00
2.517700000000000049e+00 3.428738577015020716e+00
2.535099999999999909e+00 3.440020741337586063e+00
2.552500000000000213e+00 3.451714856955864441e+00
2.569799999999999862e+00 3.463927587852291268e+00
2.587200000000000166e+00 3.476536028477331008e+00
2.604499999999999815e+00 3.489416271417579374e+00
2.621900000000000119e+00 3.502746275388736397e+00
2.639299999999999979e+00 3.516573247066692165e+00
2.656600000000000072e+00 3.530965512427636899e+00
2.673999999999999932e+00 3.546207340919943718e+00
2.691399999999999793e+00 3.561834960454596910e+00
2.708699999999999886e+00 3.577053239988726041e+00
2.726100000000000190e+00 3.591922462123367410e+00
2.743500000000000050e+00 3.606638527623814205e+00
2.760800000000000143e+00 3.621317203309456723e+00
2.778200000000000003e+00 3.636026848688965529e+00
2.795500000000000096e+00 3.650807058954973261e+00
2.812899999999999956e+00 3.665769175934730839e+00
2.830299999999999816e+00 3.680988924631487080e+00
2.847599999999999909e+00 3.696512478093323395e+00
2.865000000000000213e+00 3.712398556256162330e+00
2.882400000000000073e+00 3.728740399569874686e+00
2.899700000000000166e+00 3.745567372865822975e+00
2.917100000000000026e+00 3.762862093982929146e+00
2.934499999999999886e+00 3.780636450174659657e+00
2.951799999999999979e+00 3.798907216544414656e+00
2.969199999999999839e+00 3.817764043873148161e+00
2.986600000000000144e+00 3.837259838516099197e+00
3.003899999999999793e+00 3.857577659201007592e+00
3.021300000000000097e+00 3.878750126851923774e+00
3.038600000000000190e+00 3.900470751018832338e+00
3.056000000000000050e+00 3.922365684308541489e+00
3.073399999999999910e+00 3.945019383743609609e+00
3.090700000000000003e+00 3.969864776901105508e+00
3.108099999999999863e+00 3.997953837688291490e+00
3.125500000000000167e+00 4.030892229397708526e+00
3.142799999999999816e+00 4.069590919981521893e+00
3.160200000000000120e+00 4.109044754262356491e+00
3.177599999999999980e+00 4.145429900120407574e+00
3.194900000000000073e+00 4.180226501409771700e+00
3.212299999999999933e+00 4.214823237201413164e+00
3.229600000000000026e+00 4.252679904928379884e+00
3.246999999999999886e+00 4.289677980489949860e+00
3.264400000000000190e+00 4.313668001361121718e+00
3.281699999999999839e+00 4.324806559504121850e+00
3.299100000000000144e+00 4.330548406644264325e+00
3.316500000000000004e+00 4.330965643553051692e+00
3.333800000000000097e+00 4.328939535450801124e+00
3.351199999999999957e+00 4.325448222020694899e+00
3.368599999999999817e+00 4.320611986215165956e+00
3.385899999999999910e+00 4.314654318449656856e+00
3.403300000000000214e+00 4.307971721295334788e+00
3.420599999999999863e+00 4.300457990256790097e+00
3.438000000000000167e+00 4.292067333659728590e+00
3.455400000000000027e+00 4.282894631186531242e+00
3.472700000000000120e+00 4.272997218477259551e+00
3.490099999999999980e+00 4.262320249087198754e+00
3.507499999999999840e+00 4.250813329371061045e+00
3.524799999999999933e+00 4.238481430255125026e+00
3.542199999999999793e+00 4.224850204047797320e+00
3.559600000000000097e+00 4.210252719309689695e+00
3.576900000000000190e+00 4.187070401017791710e+00
3.594300000000000050e+00 4.140995186313421783e+00
3.611600000000000144e+00 4.121525091848992517e+00
3.629000000000000004e+00 4.122267641787029646e+00
3.646399999999999864e+00 4.120457201539243108e+00
3.663699999999999957e+00 4.120037212641102009e+00
3.681099999999999817e+00 4.120517046343103118e+00
3.698500000000000121e+00 4.117048021542077052e+00
3.715800000000000214e+00 4.110095455307054557e+00
3.733200000000000074e+00 4.098870394709566156e+00
3.750599999999999934e+00 4.080821034778139733e+00
3.767900000000000027e+00 4.056590737843330352e+00
3.785299999999999887e+00 4.035840570518826276e+00
3.802599999999999980e+00 4.025841671626082530e+00
3.819999999999999840e+00 4.017221348634770983e+00
3.837400000000000144e+00 4.010898750290101233e+00
3.854699999999999793e+00 4.009224925145155716e+00
3.872100000000000097e+00 4.006860735258361395e+00
3.889499999999999957e+00 3.995460637126345915e+00
3.906800000000000050e+00 3.980437513002211602e+00
3.924199999999999910e+00 3.969038078858545759e+00
3.941600000000000215e+00 3.968541682288473815e+00
3.958899999999999864e+00 3.972112706825120299e+00
3.976300000000000168e+00 3.973987288985352695e+00
3.993599999999999817e+00 3.974820204707429916e+00
4.011000000000000121e+00 3.976185547724627956e+00
4.028400000000000425e+00 3.979157874055765820e+00
4.045700000000000074e+00 3.984744313873977095e+00
4.063100000000000378e+00 3.992210369063558417e+00
4.080499999999999794e+00 4.001385708102464633e+00
4.097800000000000331e+00 4.011500159267829879e+00
4.115199999999999747e+00 4.022191505120290778e+00
4.132600000000000051e+00 4.033973845668262115e+00
4.149899999999999700e+00 4.047856514743790157e+00
4.167300000000000004e+00 4.065357564314757255e+00
4.184599999999999653e+00 4.084202722346383929e+00
4.201999999999999957e+00 4.098460232288016591e+00
4.219400000000000261e+00 4.108790655811228376e+00
4.236699999999999910e+00 4.112319086039014415e+00
4.254100000000000215e+00 4.113713383834976867e+00
4.271499999999999631e+00 4.112283926261615541e+00
4.288800000000000168e+00 4.100506324374078027e+00
4.306199999999999584e+00 4.083961784729186917e+00
4.323599999999999888e+00 4.066651003314762924e+00
4.340900000000000425e+00 4.058203367235530656e+00
4.358299999999999841e+00 4.050154777737180467e+00
4.375600000000000378e+00 4.043621355062917644e+00
4.392999999999999794e+00 4.034183846728200962e+00
4.410400000000000098e+00 4.018641306186337303e+00
4.427699999999999747e+00 4.000119899615421915e+00
4.445100000000000051e+00 3.977876006877467674e+00
4.462500000000000355e+00 3.950494117515384040e+00
4.479800000000000004e+00 3.925393935224465114e+00
4.497200000000000308e+00 3.902285028872696238e+00
4.514599999999999724e+00 3.881437890076328223e+00
4.531900000000000261e+00 3.863248113656436278e+00
4.549299999999999677e+00 3.847415854147323788e+00
4.566600000000000215e+00 3.834428006258030486e+00
4.583999999999999631e+00 3.824665867548475706e+00
4.601399999999999935e+00 3.820421628233646061e+00
4.618699999999999584e+00 3.822500074147081595e+00
4.636099999999999888e+00 3.827306420100763162e+00
4.653500000000000192e+00 3.854609679939706268e+00
4.670799999999999841e+00 3.877752727046249959e+00
4.688200000000000145e+00 3.737050005870120373e+00
4.705599999999999561e+00 3.730649682084854035e+00
4.722900000000000098e+00 3.720338233174737219e+00
4.740300000000000402e+00 3.708255428655498065e+00
4.757600000000000051e+00 3.698636314966693206e+00
4.775000000000000355e+00 3.685385276741392602e+00
4.792399999999999771e+00 3.639282089504121132e+00
4.809700000000000308e+00 3.565809564098169737e+00
4.827099999999999724e+00 3.498541441153933285e+00
4.844500000000000028e+00 3.462194146643961634e+00
4.861799999999999677e+00 3.253336438523945606e+00
4.879199999999999982e+00 3.192552202958675700e+00
4.896600000000000286e+00 3.132580684379924207e+00
4.913899999999999935e+00 3.090621329632922798e+00
4.931300000000000239e+00 3.030269847457870647e+00
4.948599999999999888e+00 2.957373790865853280e+00
4.966000000000000192e+00 2.944134217396128239e+00
4.983399999999999608e+00 2.941002152928199997e+00
5.000700000000000145e+00 2.952623301265800748e+00
5.018099999999999561e+00 2.957736638888955216e+00
5.035499999999999865e+00 2.956012631200838570e+00
5.052800000000000402e+00 2.949140420791580119e+00
5.070199999999999818e+00 2.942061322078211916e+00
5.087600000000000122e+00 2.937400268038517837e+00
5.104899999999999771e+00 2.940510295670640151e+00
5.122300000000000075e+00 2.931076180953397170e+00
5.139599999999999724e+00 2.917643785933174527e+00
5.157000000000000028e+00 2.905191067661816007e+00
5.174400000000000333e+00 2.892988104375924685e+00
5.191699999999999982e+00 2.882136803772872291e+00
5.209100000000000286e+00 2.868495885856511496e+00
5.226499999999999702e+00 2.847951058816529102e+00
5.243800000000000239e+00 2.818845784904191021e+00
5.261199999999999655e+00 2.795279090010413192e+00
5.278599999999999959e+00 2.795981447944994258e+00
5.295899999999999608e+00 2.744682832561303520e+00
5.313299999999999912e+00 2.754777433717148227e+00
5.330599999999999561e+00 2.761846967554733467e+00
5.347999999999999865e+00 2.791986178280393194e+00
5.365400000000000169e+00 2.903043211042188876e+00
5.382699999999999818e+00 2.742576249056785986e+00
5.400100000000000122e+00 2.724524574655236897e+00
5.417500000000000426e+00 2.707610120160283351e+00
5.434800000000000075e+00 2.686246999169121796e+00
5.452200000000000379e+00 2.617395834841312663e+00
5.469599999999999795e+00 2.583765283119122902e+00
5.486900000000000333e+00 2.550171356600104744e+00
5.504299999999999748e+00 2.529169393169798497e+00
5.521600000000000286e+00 2.517918865778964399e+00
5.538999999999999702e+00 2.507521065577924979e+00
5.556400000000000006e+00 2.499165011433092332e+00
5.573699999999999655e+00 2.489110534077341619e+00
5.591099999999999959e+00 2.473262049679783026e+00
5.608500000000000263e+00 2.453101491688415070e+00
5.625799999999999912e+00 2.433746654065102710e+00
5.643200000000000216e+00 2.416255105360546551e+00
5.660599999999999632e+00 2.404644452686717671e+00
5.677900000000000169e+00 2.401006972555555841e+00
5.695299999999999585e+00 2.396670192224310547e+00
5.712600000000000122e+00 2.388589967461816066e+00
5.730000000000000426e+00 2.383811300011087653e+00
5.747399999999999842e+00 2.381267792698203767e+00
5.764700000000000379e+00 2.380835824352658836e+00
5.782099999999999795e+00 2.385308577942140129e+00
5.799500000000000099e+00 2.397933753725891126e+00
5.816799999999999748e+00 2.408304610239060395e+00
5.834200000000000053e+00 2.439164187051351185e+00
5.851600000000000357e+00 2.478117335925122511e+00
5.868900000000000006e+00 2.513029041719468282e+00
5.886300000000000310e+00 2.523870672427872552e+00
5.903599999999999959e+00 2.506368105108727207e+00
5.921000000000000263e+00 2.467596089346276944e+00
5.938399999999999679e+00 2.409745995412047037e+00
5.955700000000000216e+00 2.344491852479769101e+00
5.973099999999999632e+00 2.281483323353735937e+00
5.990499999999999936e+00 2.269157632204206632e+00
6.007799999999999585e+00 2.252508186463264117e+00
6.025199999999999889e+00 2.228080340528522107e+00
6.042600000000000193e+00 2.197903583217761359e+00
6.059899999999999842e+00 2.161960219441681819e+00
6.077300000000000146e+00 2.111033956328592254e+00
6.094599999999999795e+00 2.057118198072197757e+00
6.112000000000000099e+00 2.033486029455863431e+00
6.129400000000000404e+00 2.028674819776903782e+00
6.146700000000000053e+00 2.022537258133393578e+00
6.164100000000000357e+00 2.007575630441991166e+00
6.181499999999999773e+00 2.002319521038821826e+00
6.198800000000000310e+00 1.997939714392968691e+00
6.216199999999999726e+00 1.993173087535650367e+00
6.233600000000000030e+00 1.988589177182066070e+00
6.250899999999999679e+00 1.982812551886214081e+00
6.268299999999999983e+00 1.976119588027158258e+00
6.285599999999999632e+00 1.981603591338930492e+00
6.302999999999999936e+00 1.971571656767625136e+00
6.320400000000000240e+00 1.964042089151665227e+00
6.337699999999999889e+00 1.930945054544116690e+00
6.355100000000000193e+00 1.935926799160906597e+00
6.372499999999999609e+00 1.937102765485559930e+00
6.389800000000000146e+00 1.949295474913449455e+00
6.407199999999999562e+00 1.929290629054115414e+00
6.424599999999999866e+00 1.902999118755916541e+00
6.441900000000000404e+00 1.886300561476619730e+00
6.459299999999999820e+00 1.888958351294047322e+00
6.476600000000000357e+00 1.879324573836878898e+00
6.493999999999999773e+00 1.865323783780003630e+00
6.511400000000000077e+00 1.849197705237362044e+00
6.528699999999999726e+00 1.832855679854352715e+00
6.546100000000000030e+00 1.823031934327503212e+00
6.563500000000000334e+00 1.814425063090299162e+00
6.580799999999999983e+00 1.799848680777448084e+00
6.598200000000000287e+00 1.786280410645438410e+00
6.615599999999999703e+00 1.771897843670181105e+00
6.632900000000000240e+00 1.756056897466288902e+00
6.650299999999999656e+00 1.742140970202422423e+00
6.667600000000000193e+00 1.729868045961268530e+00
6.684999999999999609e+00 1.720330940346496362e+00
6.702399999999999913e+00 1.712169131064981586e+00
6.719699999999999562e+00 1.706293644475143312e+00
6.737099999999999866e+00 1.698961684913430803e+00
6.754500000000000171e+00 1.691531054858319116e+00
6.771799999999999820e+00 1.694949888384925885e+00
6.789200000000000124e+00 1.652511604575998216e+00
6.806600000000000428e+00 1.646750323997340004e+00
6.823900000000000077e+00 1.642934338063770205e+00
6.841300000000000381e+00 1.641449699410795660e+00
6.858600000000000030e+00 1.639442239594552486e+00
6.876000000000000334e+00 1.634198623044726739e+00
6.893399999999999750e+00 1.634005020181641399e+00
6.910700000000000287e+00 1.636043052636879658e+00
